freq,psd_x,psd_y,psd_z,psd_xyz,zv(112.8),mzv(115.4),ei(138.2),2hump_ei(149.8),3hump_ei(149.8)
0.0,0.000e+00,0.000e+00,0.000e+00,0.000e+00,1.000,1.000,1.000,1.000,1.000
1.5,5.742e-13,9.909e-15,5.103e-15,5.892e-13,0.998,0.997,0.997,0.995,0.994
3.0,3.790e-01,1.854e-02,7.096e-03,4.046e-01,0.996,0.994,0.993,0.990,0.986
4.5,5.552e+01,4.013e+00,1.478e+00,6.101e+01,0.993,0.990,0.988,0.984,0.977
6.0,4.143e+02,2.284e+01,1.100e+01,4.481e+02,0.989,0.985,0.983,0.977,0.967
7.5,9.241e+02,4.634e+01,2.230e+01,9.928e+02,0.986,0.980,0.978,0.969,0.956
9.0,1.484e+03,6.475e+01,2.779e+01,1.577e+03,0.982,0.975,0.972,0.960,0.944
10.5,2.046e+03,7.192e+01,3.634e+01,2.155e+03,0.977,0.969,0.965,0.951,0.931
12.0,2.007e+03,6.948e+01,2.953e+01,2.106e+03,0.972,0.963,0.958,0.941,0.916
13.5,1.889e+03,5.920e+01,2.455e+01,1.973e+03,0.967,0.956,0.950,0.930,0.901
15.0,1.991e+03,4.801e+01,1.991e+01,2.059e+03,0.961,0.948,0.942,0.919,0.885
16.5,2.032e+03,4.568e+01,1.606e+01,2.094e+03,0.955,0.940,0.933,0.907,0.868
18.0,2.208e+03,4.357e+01,1.659e+01,2.269e+03,0.949,0.932,0.924,0.894,0.850
19.5,2.427e+03,3.792e+01,1.827e+01,2.483e+03,0.942,0.923,0.914,0.881,0.831
21.0,2.676e+03,3.623e+01,1.843e+01,2.730e+03,0.934,0.914,0.904,0.867,0.811
22.5,2.870e+03,4.495e+01,1.853e+01,2.933e+03,0.927,0.904,0.894,0.852,0.791
24.0,3.084e+03,4.141e+01,1.917e+01,3.144e+03,0.919,0.894,0.883,0.837,0.770
25.4,3.255e+03,3.080e+01,1.907e+01,3.304e+03,0.910,0.884,0.871,0.822,0.749
26.9,3.447e+03,2.959e+01,1.610e+01,3.493e+03,0.902,0.873,0.859,0.806,0.727
28.4,3.655e+03,2.770e+01,1.608e+01,3.699e+03,0.893,0.861,0.847,0.789,0.704
29.9,3.899e+03,2.737e+01,1.596e+01,3.942e+03,0.883,0.850,0.834,0.772,0.682
31.4,4.076e+03,2.731e+01,1.477e+01,4.118e+03,0.873,0.838,0.821,0.755,0.658
32.9,4.329e+03,2.755e+01,1.462e+01,4.371e+03,0.863,0.825,0.808,0.737,0.635
34.4,4.633e+03,2.848e+01,1.525e+01,4.676e+03,0.853,0.813,0.794,0.719,0.611
35.9,5.016e+03,2.671e+01,1.643e+01,5.059e+03,0.842,0.799,0.780,0.701,0.587
37.4,5.365e+03,2.797e+01,1.684e+01,5.410e+03,0.831,0.786,0.765,0.682,0.563
38.9,5.732e+03,2.899e+01,1.615e+01,5.777e+03,0.819,0.772,0.751,0.663,0.539
40.4,6.012e+03,3.026e+01,1.774e+01,6.060e+03,0.807,0.758,0.736,0.644,0.515
41.9,6.443e+03,3.631e+01,2.013e+01,6.500e+03,0.795,0.744,0.720,0.625,0.492
43.4,6.778e+03,4.878e+01,1.961e+01,6.846e+03,0.783,0.730,0.705,0.606,0.468
44.9,7.435e+03,6.691e+01,2.112e+01,7.523e+03,0.770,0.715,0.689,0.586,0.444
46.4,7.993e+03,8.204e+01,2.574e+01,8.101e+03,0.757,0.700,0.673,0.567,0.421
47.9,8.726e+03,9.394e+01,3.133e+01,8.852e+03,0.744,0.684,0.657,0.547,0.398
49.4,9.452e+03,8.979e+01,3.446e+01,9.576e+03,0.730,0.669,0.641,0.527,0.375
50.9,1.008e+04,6.625e+01,3.133e+01,1.017e+04,0.717,0.653,0.624,0.508,0.353
52.4,1.021e+04,5.171e+01,3.023e+01,1.029e+04,0.702,0.637,0.608,0.488,0.331
53.9,1.044e+04,6.279e+01,3.530e+01,1.054e+04,0.688,0.621,0.591,0.469,0.309
55.4,1.108e+04,9.355e+01,4.521e+01,1.121e+04,0.673,0.605,0.574,0.449,0.289
56.9,1.257e+04,1.250e+02,5.633e+01,1.275e+04,0.659,0.589,0.557,0.430,0.268
58.4,1.436e+04,1.097e+02,5.780e+01,1.453e+04,0.644,0.573,0.541,0.411,0.248
59.9,1.577e+04,1.237e+02,4.147e+01,1.593e+04,0.628,0.556,0.524,0.392,0.229
61.4,1.583e+04,1.764e+02,2.817e+01,1.604e+04,0.613,0.539,0.507,0.373,0.211
62.9,1.450e+04,2.232e+02,4.808e+01,1.477e+04,0.597,0.523,0.490,0.354,0.193
64.4,1.362e+04,2.931e+02,8.325e+01,1.399e+04,0.581,0.506,0.473,0.336,0.176
65.9,1.429e+04,4.379e+02,1.160e+02,1.484e+04,0.565,0.489,0.456,0.318,0.160
67.4,1.529e+04,7.234e+02,1.464e+02,1.616e+04,0.549,0.472,0.439,0.300,0.145
68.9,1.654e+04,1.176e+03,1.774e+02,1.790e+04,0.532,0.456,0.422,0.283,0.130
70.4,1.788e+04,1.551e+03,1.947e+02,1.962e+04,0.515,0.439,0.405,0.266,0.116
71.9,1.927e+04,1.814e+03,1.886e+02,2.127e+04,0.498,0.422,0.389,0.250,0.104
73.4,2.118e+04,1.596e+03,1.677e+02,2.295e+04,0.481,0.405,0.372,0.233,0.092
74.9,2.372e+04,1.272e+03,1.578e+02,2.515e+04,0.464,0.388,0.356,0.218,0.081
76.3,2.674e+04,1.030e+03,1.666e+02,2.793e+04,0.447,0.372,0.340,0.202,0.071
77.8,3.022e+04,8.400e+02,1.968e+02,3.126e+04,0.429,0.355,0.324,0.188,0.062
79.3,3.374e+04,7.760e+02,2.356e+02,3.475e+04,0.412,0.339,0.308,0.173,0.055
80.8,3.778e+04,6.361e+02,2.912e+02,3.870e+04,0.394,0.322,0.292,0.159,0.049
82.3,4.281e+04,4.658e+02,3.616e+02,4.364e+04,0.376,0.306,0.277,0.146,0.044
83.8,4.795e+04,3.904e+02,4.456e+02,4.878e+04,0.358,0.290,0.261,0.133,0.040
85.3,5.409e+04,3.624e+02,5.214e+02,5.498e+04,0.340,0.274,0.247,0.121,0.038
86.8,6.061e+04,2.773e+02,5.446e+02,6.143e+04,0.322,0.258,0.232,0.109,0.037
88.3,6.867e+04,2.123e+02,5.689e+02,6.945e+04,0.304,0.242,0.218,0.098,0.037
89.8,7.681e+04,2.123e+02,5.740e+02,7.760e+04,0.286,0.227,0.203,0.087,0.037
91.3,8.744e+04,2.204e+02,5.562e+02,8.821e+04,0.268,0.212,0.190,0.078,0.038
92.8,9.915e+04,2.176e+02,5.393e+02,9.991e+04,0.250,0.196,0.176,0.068,0.038
94.3,1.162e+05,2.593e+02,5.715e+02,1.170e+05,0.231,0.182,0.163,0.060,0.039
95.8,1.368e+05,3.553e+02,6.213e+02,1.378e+05,0.213,0.167,0.151,0.052,0.040
97.3,1.662e+05,4.539e+02,7.155e+02,1.673e+05,0.195,0.153,0.138,0.045,0.040
98.8,2.001e+05,5.641e+02,7.817e+02,2.015e+05,0.176,0.139,0.126,0.039,0.040
100.3,2.477e+05,7.704e+02,8.106e+02,2.493e+05,0.158,0.125,0.115,0.035,0.040
101.8,3.050e+05,1.101e+03,8.472e+02,3.070e+05,0.140,0.112,0.104,0.031,0.039
103.3,3.699e+05,1.583e+03,2.202e+03,3.737e+05,0.122,0.098,0.093,0.029,0.038
104.8,4.282e+05,1.778e+03,5.022e+03,4.350e+05,0.107,0.086,0.083,0.028,0.037
106.3,4.938e+05,1.661e+03,6.288e+03,5.017e+05,0.094,0.073,0.073,0.028,0.035
107.8,5.583e+05,1.820e+03,6.569e+03,5.667e+05,0.082,0.062,0.064,0.028,0.034
109.3,6.660e+05,2.242e+03,9.599e+03,6.778e+05,0.073,0.053,0.055,0.030,0.032
110.8,7.197e+05,2.306e+03,1.238e+04,7.344e+05,0.066,0.046,0.047,0.031,0.030
112.3,7.360e+05,2.382e+03,1.327e+04,7.516e+05,0.062,0.040,0.039,0.033,0.027
113.8,7.184e+05,2.497e+03,1.116e+04,7.321e+05,0.063,0.036,0.033,0.034,0.025
115.3,6.848e+05,2.761e+03,7.432e+03,6.950e+05,0.068,0.035,0.027,0.036,0.023
116.8,6.057e+05,2.937e+03,4.177e+03,6.128e+05,0.076,0.035,0.023,0.037,0.020
118.3,5.201e+05,2.995e+03,2.110e+03,5.252e+05,0.086,0.037,0.020,0.038,0.018
119.8,4.383e+05,2.973e+03,1.182e+03,4.425e+05,0.098,0.041,0.020,0.038,0.016
121.3,3.749e+05,2.877e+03,7.482e+02,3.785e+05,0.110,0.046,0.021,0.038,0.014
122.8,3.194e+05,2.716e+03,4.799e+02,3.225e+05,0.126,0.051,0.023,0.038,0.012
124.3,2.149e+05,1.889e+03,2.838e+02,2.171e+05,0.143,0.058,0.025,0.038,0.012
125.8,3.816e+04,5.229e+02,1.047e+02,3.879e+04,0.160,0.066,0.028,0.037,0.012
127.2,3.209e+03,1.439e+02,4.004e+01,3.393e+03,0.177,0.073,0.031,0.036,0.013
128.7,2.538e+03,1.267e+02,3.898e+01,2.703e+03,0.194,0.080,0.033,0.035,0.014
130.2,2.255e+03,1.112e+02,3.052e+01,2.397e+03,0.211,0.086,0.035,0.034,0.016
131.7,2.151e+03,1.163e+02,2.082e+01,2.288e+03,0.228,0.092,0.037,0.032,0.017
133.2,1.762e+03,1.095e+02,1.635e+01,1.888e+03,0.245,0.098,0.038,0.030,0.019
134.7,1.721e+03,1.101e+02,1.611e+01,1.848e+03,0.262,0.103,0.039,0.028,0.021
136.2,1.501e+03,1.084e+02,1.361e+01,1.623e+03,0.278,0.108,0.040,0.026,0.023
137.7,1.273e+03,1.117e+02,1.274e+01,1.398e+03,0.294,0.113,0.040,0.024,0.024
139.2,1.219e+03,1.007e+02,1.155e+01,1.331e+03,0.311,0.117,0.039,0.022,0.026
140.7,1.283e+03,8.239e+01,1.183e+01,1.377e+03,0.327,0.120,0.039,0.019,0.027
142.2,1.139e+03,7.572e+01,1.189e+01,1.226e+03,0.342,0.123,0.037,0.017,0.028
143.7,9.857e+02,7.639e+01,9.821e+00,1.072e+03,0.358,0.126,0.036,0.014,0.029
145.2,9.461e+02,7.045e+01,9.045e+00,1.026e+03,0.373,0.128,0.034,0.012,0.029
146.7,9.137e+02,6.580e+01,1.023e+01,9.897e+02,0.389,0.130,0.032,0.012,0.030
148.2,8.101e+02,6.426e+01,1.115e+01,8.855e+02,0.404,0.132,0.031,0.011,0.030
149.7,7.283e+02,6.398e+01,9.977e+00,8.022e+02,0.418,0.133,0.030,0.011,0.030
151.2,7.274e+02,7.810e+01,1.136e+01,8.169e+02,0.433,0.133,0.029,0.011,0.030
152.7,7.327e+02,7.588e+01,1.313e+01,8.217e+02,0.447,0.133,0.028,0.011,0.029
154.2,7.014e+02,8.316e+01,1.346e+01,7.980e+02,0.461,0.133,0.028,0.012,0.028
155.7,6.776e+02,8.699e+01,1.413e+01,7.788e+02,0.475,0.132,0.028,0.013,0.027
157.2,7.177e+02,8.757e+01,1.694e+01,8.222e+02,0.489,0.131,0.029,0.016,0.026
158.7,7.675e+02,8.813e+01,1.942e+01,8.751e+02,0.502,0.130,0.030,0.018,0.024
160.2,6.419e+02,8.070e+01,1.689e+01,7.394e+02,0.515,0.128,0.032,0.020,0.023
161.7,5.996e+02,8.835e+01,1.808e+01,7.060e+02,0.528,0.125,0.035,0.022,0.021
163.2,6.199e+02,9.085e+01,1.830e+01,7.290e+02,0.540,0.123,0.038,0.024,0.019
164.7,6.504e+02,1.198e+02,2.179e+01,7.920e+02,0.553,0.119,0.042,0.026,0.017
166.2,6.071e+02,1.112e+02,1.924e+01,7.375e+02,0.565,0.116,0.046,0.027,0.015
167.7,7.039e+02,1.312e+02,2.488e+01,8.600e+02,0.576,0.112,0.051,0.029,0.014
169.2,6.650e+02,1.358e+02,2.598e+01,8.267e+02,0.588,0.108,0.057,0.030,0.013
170.7,5.863e+02,1.170e+02,2.289e+01,7.262e+02,0.599,0.103,0.065,0.031,0.013
172.2,6.473e+02,1.455e+02,2.836e+01,8.212e+02,0.610,0.099,0.074,0.031,0.012
173.7,6.259e+02,1.463e+02,2.772e+01,7.999e+02,0.620,0.096,0.083,0.032,0.012
175.2,6.323e+02,1.503e+02,2.842e+01,8.110e+02,0.630,0.094,0.092,0.032,0.012
176.7,7.265e+02,2.199e+02,3.713e+01,9.835e+02,0.640,0.092,0.102,0.032,0.012
178.1,6.553e+02,1.911e+02,3.110e+01,8.776e+02,0.650,0.089,0.112,0.031,0.013
179.6,7.113e+02,2.693e+02,4.046e+01,1.021e+03,0.659,0.087,0.122,0.030,0.013
181.1,7.380e+02,2.846e+02,4.184e+01,1.064e+03,0.668,0.085,0.132,0.029,0.014
182.6,6.923e+02,2.523e+02,3.747e+01,9.821e+02,0.677,0.084,0.142,0.028,0.014
184.1,6.978e+02,3.403e+02,4.456e+01,1.083e+03,0.685,0.082,0.153,0.027,0.015
185.6,7.297e+02,4.234e+02,4.931e+01,1.202e+03,0.693,0.081,0.164,0.027,0.017
187.1,7.041e+02,4.446e+02,4.926e+01,1.198e+03,0.701,0.081,0.175,0.027,0.019
